#Wavelength Species (0=neutral;1=ionised)
#
6707.761    3.0 
6587.61     6.0 
7771.941    8.0 
7774.161    8.0 
7775.39     8.0 
4751.822    11.0    
5682.633    11.0    
5688.205    11.0    
4730.029    12.0    
5711.088    12.0    
7691.553    12.0    
6696.023    13.0    
6698.673    13.0    
7835.309    13.0    
7836.134    13.0    
5690.425    14.0    
5701.104    14.0    
5793.073    14.0    
6721.848    14.0    
7680.266    14.0    
7688.396    14.0    
7689.017    14.0    
7760.628    14.0    
7798.837    14.0    
7842.979    14.0    
7698.974    19.0    
5857.451    20.0    
5867.562    20.0    
6493.781    20.0    
6499.65     20.0    
6508.85     20.0    
4743.83     21.0    
5671.821    21.0    
5686.847    21.0    
5724.107    21.0    
5641.001    21.1    
5657.896    21.1    
5667.149    21.1    
6604.601    21.1    
4722.606    22.0    
4747.673    22.0    
4758.118    22.0    
4759.27     22.0    
4778.255    22.0    
4781.711    22.0    
4797.975    22.0    
4820.411    22.0    
5689.46     22.0    
5716.45     22.0    
5720.436    22.0    
5766.359    22.0    
5866.451    22.0    
6599.105    22.0    
6716.666    22.0    
6743.122    22.0    
6746.334    22.0    
7767.444    22.0    
7852.677    22.0    
4708.662    22.1    
4719.515    22.1    
4764.524    22.1    
4779.985    22.1    
4798.532    22.1    
4805.085    22.1    
4865.611    22.1    
4874.01     22.1        
6606.949    22.1    
6680.133    22.1    
4746.616    23.0    
4784.467    23.0    
4796.914    23.0    
4831.646    23.0    
5657.435    23.0    
5668.361    23.0    
5670.853    23.0    
5727.048    23.0    
5727.652    23.0    
5731.241    23.0    
5737.059    23.0    
5830.675    23.0    
6531.415    23.0    
4708.013    24.0    
4775.13     24.0    
4789.335    24.0    
4801.025    24.0    
5702.306    24.0    
5719.816    24.0    
5783.063    24.0    
5787.918    24.0    
5844.595    24.0    
6501.185    24.0    
6537.921    24.0    
6630.011    24.0    
6669.281    24.0    
4812.337    24.1    
4824.127    24.1    
4836.229    24.1    
4848.235    24.1    
4884.607    24.1    
4709.712    25.0    
4739.087    25.0    
4761.512    25.0    
4765.846    25.0    
4783.427    25.0    
4716.839    26.0    
4741.53     26.0    
4772.803    26.0    
4788.757    26.0    
4793.962    26.0    
4794.36     26.0    
4802.88     26.0    
4808.148    26.0    
4809.933    26.0    
4809.938    26.0    
4890.755    26.0    
4891.492    26.0    
5646.684    26.0    
5651.469    26.0    
5652.318    26.0    
5661.346    26.0    
5679.023    26.0    
5680.24     26.0    
5696.09     26.0    
5704.733    26.0    
5705.465    26.0    
5720.898    26.0    
5724.455    26.0    
5731.762    26.0    
5732.296    26.0    
5741.848    26.0    
5752.032    26.0    
5775.081    26.0    
5778.453    26.0    
5809.218    26.0    
5821.888    26.0    
5848.066    26.0    
5848.127    26.0    
5849.684    26.0    
5853.148    26.0    
5855.077    26.0    
5858.778    26.0    
5859.586    26.0    
5861.11     26.0    
5862.357    26.0    
6481.87     26.0    
6498.939    26.0    
6518.367    26.0    
6546.239    26.0    
6592.914    26.0    
6593.87     26.0    
6597.561    26.0    
6609.11     26.0    
6627.545    26.0    
6646.932    26.0    
6653.853    26.0    
6699.142    26.0    
6703.567    26.0    
6705.101    26.0    
6710.319    26.0    
6713.745    26.0    
6725.357    26.0    
6726.666    26.0    
6730.291    26.0    
6733.151    26.0    
7583.788    26.0    
7710.364    26.0    
7719.049    26.0    
7720.712    26.0    
7723.208    26.0    
7746.596    26.0    
7748.269    26.0    
7751.109    26.0    
7780.557    26.0    
7802.473    26.0    
7807.909    26.0    
7844.559    26.0    
7879.758    26.0    
4720.149    26.1    
4731.453    26.1    
4833.197    26.1    
6482.204    26.1    
6516.08     26.1    
7711.723    26.1    
7841.388    26.1    
4792.846    27.0    
4813.467    27.0    
4813.966    27.0    
4899.504    27.0    
5647.234    27.0    
6632.433    27.0    
7712.665    27.0    
7838.134    27.0    
5682.198    28.0    
5805.213    28.0    
5846.986    28.0    
6482.796    28.0    
6586.308    28.0    
6635.118    28.0    
6643.629    28.0    
7727.613    28.0    
7748.891    28.0    
7797.586    28.0    
7826.766    28.0    
5700.237    29.0    
5782.127    29.0    
4722.153    30.0    
4810.528    30.0    
7800.259    37.0    
6550.24     38.0    
4854.863    39.1    
4883.684    39.1    
5662.925    39.1    
5728.89     39.1    
4739.48     40.0    
4772.323    40.0    
4805.889    40.0    
4828.041    40.0    
4709.482    44.0    
4869.153    44.0    
5853.668    56.1    
6496.897    56.1    
4716.443    57.1    
4748.726    57.1    
4804.039    57.1    
5805.773    57.1    
4773.941    58.1    
4706.543    60.1    
4811.342    60.1    
5740.858    60.1    
5770.489    60.1    
5811.572    60.1    
5842.366    60.1    
4704.4      62.1    
4745.681    62.1    
6645.064    63.1    
